# 1-d slice in y-direction, file: plt_2d_005500
# time =       0.173135125104    
#                       y                  density      CH4_ConsumptionRate                   Y(CH4)               x_velocity                     temp  
       0.781250000000E-04        1.13633299890           0.187140565902E-12       0.392668154444E-01       0.436246319378E-13        299.999366455      
       0.234375000000E-03        1.13633288579           0.200041211419E-12       0.392668154452E-01       0.108743483166E-12        299.999396976      
       0.390625000000E-03        1.13633258150           0.980090506908E-13       0.392668154550E-01       0.255548315153E-12        299.999476974      
       0.546875000000E-03        1.13633239000          -0.664766483370E-13       0.392668154719E-01      -0.586265065024E-12        299.999527598      
       0.703125000000E-03        1.13633232887          -0.225626499736E-12       0.392668154784E-01      -0.249613357160E-11        299.999544092      
       0.859375000000E-03        1.13633228753          -0.135817863422E-12       0.392668154826E-01      -0.943349092795E-12        299.999554577      
       0.101562500000E-02        1.13633219123          -0.104728153097E-13       0.392668155082E-01       0.125017268222E-11        299.999580261      
       0.117187500000E-02        1.13633200285          -0.613603863764E-13       0.392668154805E-01       0.730534114342E-11        299.999629735      
       0.132812500000E-02        1.13633174559           0.284634437602E-12       0.392668154488E-01       0.525532812502E-11        299.999698343      
       0.148437500000E-02        1.13633145690          -0.629692593912E-14       0.392668154618E-01       0.497628208728E-12        299.999774030      
       0.164062500000E-02        1.13633119007          -0.247216448837E-12       0.392668154910E-01      -0.215628521609E-11        299.999844583      
       0.179687500000E-02        1.13633097069           0.200894073647E-13       0.392668155142E-01      -0.170887732529E-11        299.999901983      
       0.195312500000E-02        1.13633081456          -0.169221721122E-12       0.392668155186E-01      -0.507725433777E-11        299.999943391      
       0.210937500000E-02        1.13633071234           0.111455289612E-12       0.392668155223E-01      -0.867715324621E-11        299.999970132      
       0.226562500000E-02        1.13633065342           0.400158093374E-12       0.392668155344E-01      -0.804481872236E-11        299.999985712      
       0.242187500000E-02        1.13633062262           0.163194849827E-12       0.392668155149E-01       0.477729300187E-11        299.999993856      
       0.257812500000E-02        1.13633061092           0.263745849569E-13       0.392668154530E-01       0.611377223685E-11        299.999997506      
       0.273437500000E-02        1.13633060447           0.333839833634E-12       0.392668154658E-01       0.213783204095E-11        299.999999052      
       0.289062500000E-02        1.13633060163           0.389380690099E-13       0.392668154889E-01      -0.228806491341E-11        299.999999659      
       0.304687500000E-02        1.13633060016           0.687528201610E-13       0.392668155099E-01       0.100048792595E-11        299.999999851      
       0.320312500000E-02        1.13633059896          -0.557107057562E-12       0.392668155367E-01       0.112135149789E-10        299.999999968      
       0.335937500000E-02        1.13633059840           0.369427759121E-12       0.392668155471E-01       0.861614883570E-11        300.000000017      
       0.351562500000E-02        1.13633059856           0.342125408068E-13       0.392668155413E-01      -0.660657773884E-11        300.000000024      
       0.367187500000E-02        1.13633059773          -0.109677029332E-12       0.392668155496E-01       0.119806114458E-12        300.000000155      
       0.382812500000E-02        1.13633060118           0.211517095427E-12       0.392668154573E-01       0.510661319658E-11        299.999999984      
       0.398437500000E-02        1.13633060120           0.853226798356E-13       0.392668154649E-01       0.306555077319E-11        299.999999923      
       0.414062500000E-02        1.13633060045          -0.333217763955E-12       0.392668154902E-01      -0.410534481602E-11        299.999999935      
       0.429687500000E-02        1.13633059950          -0.486630095160E-13       0.392668155174E-01      -0.281973280277E-12        299.999999965      
       0.445312500000E-02        1.13633059919          -0.172367295709E-13       0.392668155311E-01       0.979241313762E-11        299.999999957      
       0.460937500000E-02        1.13633059835           0.695083630345E-12       0.392668155525E-01       0.812008913281E-11        299.999999994      
       0.476562500000E-02        1.13633059781           0.234185907852E-12       0.392668155647E-01       0.935131437362E-11        300.000000048      
       0.492187500000E-02        1.13633059703          -0.191487356167E-12       0.392668155656E-01      -0.136617371730E-10        300.000000211      
       0.507812500000E-02        1.13633060106           0.240027728494E-13       0.392668154575E-01      -0.861893066238E-11        300.000000012      
       0.523437500000E-02        1.13633060133           0.228594359717E-12       0.392668154615E-01       0.140275454753E-11        299.999999915      
       0.539062500000E-02        1.13633060054          -0.282965893657E-12       0.392668154876E-01      -0.310910408077E-11        299.999999916      
       0.554687500000E-02        1.13633059968           0.941177526680E-12       0.392668155147E-01      -0.111507764293E-10        299.999999941      
       0.570312500000E-02        1.13633059913           0.150001296716E-12       0.392668155308E-01      -0.148997115708E-10        299.999999935      
       0.585937500000E-02        1.13633059828           0.439306553288E-12       0.392668155566E-01      -0.825696831062E-11        299.999999982      
       0.601562500000E-02        1.13633059742           0.465863523930E-12       0.392668155710E-01      -0.317413534776E-11        300.000000043      
       0.617187500000E-02        1.13633059691           0.147993234563E-12       0.392668155687E-01       0.838213750698E-11        300.000000216      
       0.632812500000E-02        1.13633060074           0.398274564315E-12       0.392668154586E-01       0.554339040928E-11        300.000000017      
       0.648437500000E-02        1.13633060141           0.216160395770E-12       0.392668154596E-01       0.227094593848E-12        299.999999908      
       0.664062500000E-02        1.13633060012          -0.195446359542E-12       0.392668154920E-01      -0.684522387635E-12        299.999999924      
       0.679687500000E-02        1.13633059962           0.534263125585E-12       0.392668155180E-01      -0.246720321284E-11        299.999999925      
       0.695312500000E-02        1.13633059674          -0.995080033664E-13       0.392668155813E-01      -0.450266455133E-11        300.000000095      
       0.710937500000E-02        1.13633059779           0.156227268366E-12       0.392668155648E-01      -0.383258869546E-11        300.000000027      
       0.726562500000E-02        1.13633059696           0.164100073885E-12       0.392668155765E-01       0.339878654869E-11        300.000000060      
       0.742187500000E-02        1.13633059635          -0.299066525782E-14       0.392668155800E-01       0.164254810708E-10        300.000000243      
       0.757812500000E-02        1.13633060038           0.410803558669E-12       0.392668154590E-01       0.792082586612E-11        300.000000032      
       0.773437500000E-02        1.13633060110          -0.898205858707E-13       0.392668154593E-01       0.801595372728E-12        299.999999924      
       0.789062500000E-02        1.13633059976           0.317358208101E-13       0.392668154880E-01       0.562402935922E-12        299.999999931      
       0.804687500000E-02        1.13633059941          -0.179880146613E-12       0.392668155083E-01      -0.240545597731E-11        299.999999924      
       0.820312500000E-02        1.13633059768          -0.316064040543E-12       0.392668155401E-01      -0.315097709526E-11        299.999999968      
       0.835937500000E-02        1.13633059738          -0.260692181914E-12       0.392668155527E-01      -0.681973460874E-11        299.999999969      
       0.851562500000E-02        1.13633059563          -0.239486931945E-12       0.392668155734E-01      -0.347033241814E-11        300.000000035      
       0.867187500000E-02        1.13633059360           0.238524777512E-12       0.392668155941E-01      -0.698647485225E-12        300.000000307      
       0.882812500000E-02        1.13633059764          -0.501724972764E-13       0.392668154530E-01       0.291928684091E-13        300.000000011      
       0.898437500000E-02        1.13633059724           0.468414010994E-13       0.392668154468E-01       0.509989288304E-14        299.999999939      
       0.914062500000E-02        1.13633059428           0.229782859174E-12       0.392668154726E-01      -0.235306862174E-11        299.999999929      
       0.929687500000E-02        1.13633059153           0.192759131360E-12       0.392668154907E-01      -0.377604002829E-11        299.999999920      
       0.945312500000E-02        1.13633058677          -0.100695880817E-12       0.392668155101E-01      -0.470958469627E-11        299.999999935      
       0.960937500000E-02        1.13633058132          -0.297834326446E-12       0.392668155210E-01      -0.429800881283E-11        299.999999960      
       0.976562500000E-02        1.13633057279           0.505959071192E-12       0.392668155267E-01      -0.290340771297E-11        300.000000045      
       0.992187500000E-02        1.13633056185          -0.530407992600E-12       0.392668155056E-01       0.241051342285E-11        300.000000289      
       0.100781250000E-01        1.13633055253          -0.455452143285E-12       0.392668153234E-01       0.200974686523E-11        300.000000029      
       0.102343750000E-01        1.13633053333          -0.233324821741E-12       0.392668152671E-01       0.101158827336E-13        299.999999884      
       0.103906250000E-01        1.13633050397          -0.211997193278E-12       0.392668152206E-01      -0.229194640016E-11        299.999999773      
       0.105468750000E-01        1.13633046424          -0.211649132353E-13       0.392668151430E-01       0.197834761738E-12        299.999999377      
       0.107031250000E-01        1.13633041139           0.743896326713E-13       0.392668150129E-01       0.320052596935E-11        299.999997980      
       0.108593750000E-01        1.13633035899          -0.291421217729E-12       0.392668148242E-01      -0.923348094537E-11        299.999990156      
       0.110156250000E-01        1.13633034189          -0.392079036372E-13       0.392668145283E-01       0.259032336426E-11        299.999964226      
       0.111718750000E-01        1.13633054270           0.183709718241E-12       0.392668141028E-01       0.101513207037E-10        299.999867641      
       0.112890625000E-01        1.13633154320           0.718459481768E-12       0.392668134172E-01       0.234165519205E-10        299.999559749      
       0.113671875000E-01        1.13633130481          -0.108405112957E-12       0.392668130281E-01       0.464439658511E-10        299.999585324      
       0.114453125000E-01        1.13633095477           0.128354022967E-12       0.392668125610E-01       0.197544691680E-10        299.999633385      
       0.115234375000E-01        1.13633056463           0.773857550712E-12       0.392668120044E-01      -0.794681794381E-10        299.999683609      
       0.116015625000E-01        1.13633014167           0.123158077229E-11       0.392668113404E-01      -0.481370629556E-10        299.999732245      
       0.116796875000E-01        1.13632968774          -0.650196239351E-12       0.392668105488E-01       0.113922414645E-09        299.999777059      
       0.117578125000E-01        1.13632919813          -0.501821437323E-12       0.392668096034E-01       0.997136906184E-10        299.999816594      
       0.118359375000E-01        1.13632866420          -0.313669175269E-12       0.392668084748E-01      -0.111920218423E-09        299.999850547      
       0.119140625000E-01        1.13632807039           0.148321390163E-11       0.392668071257E-01      -0.149928750396E-09        299.999879231      
       0.119921875000E-01        1.13632740087           0.193362480297E-12       0.392668055142E-01       0.112143304365E-09        299.999903277      
       0.120703125000E-01        1.13632663468           0.874715312118E-12       0.392668035866E-01       0.177664582300E-09        299.999923076      
       0.121484375000E-01        1.13632574899           0.560225238256E-12       0.392668012826E-01      -0.113833851036E-09        299.999938837      
       0.122265625000E-01        1.13632471640          -0.628975631344E-13       0.392667985246E-01      -0.193869791884E-09        299.999950478      
       0.123046875000E-01        1.13632350780           0.526141267734E-12       0.392667952248E-01       0.107547691269E-09        299.999957917      
       0.123828125000E-01        1.13632208424           0.257836263326E-12       0.392667912697E-01       0.201309510509E-09        299.999961003      
       0.124609375000E-01        1.13632040026          -0.181335261273E-12       0.392667865296E-01      -0.833743055263E-10        299.999959778      
       0.125390625000E-01        1.13631839855           0.561491711755E-12       0.392667808353E-01      -0.193816418255E-09        299.999954370      
       0.126171875000E-01        1.13631601449           0.149328186653E-11       0.392667739913E-01       0.573371252617E-10        299.999945274      
       0.126953125000E-01        1.13631316257           0.190264408419E-11       0.392667657384E-01       0.190547258350E-09        299.999933368      
       0.127734375000E-01        1.13630974338           0.128923992538E-11       0.392667557702E-01      -0.138924895998E-11        299.999920296      
       0.128515625000E-01        1.13630562791           0.207225977558E-11       0.392667436704E-01      -0.132435652260E-09        299.999908802      
       0.129296875000E-01        1.13630066621           0.122735495456E-11       0.392667289305E-01      -0.606128514761E-11        299.999903262      
       0.130078125000E-01        1.13629465842           0.335611777728E-11       0.392667108320E-01       0.120951062882E-09        299.999910835      
       0.130859375000E-01        1.13628736903           0.377758511558E-11       0.392666884552E-01       0.135872687024E-09        299.999942461      
       0.131640625000E-01        1.13627847824           0.513573202249E-11       0.392666604304E-01       0.987447774544E-10        300.000016467      
       0.132421875000E-01        1.13626759412           0.615852673559E-11       0.392666248921E-01       0.177409835998E-10        300.000161477      
       0.133203125000E-01        1.13625415860           0.916188866852E-11       0.392665788785E-01       0.174940419602E-10        300.000427679      
       0.133984375000E-01        1.13623745423           0.133604687846E-10       0.392665183756E-01       0.413769843786E-09        300.000895074      
       0.134570312500E-01        1.13622169651           0.140811491766E-10       0.392664546667E-01       0.678994256002E-09        300.001486060      
       0.134960937500E-01        1.13620964567           0.201595098037E-10       0.392664039178E-01       0.677754956789E-09        300.002049828      
       0.135351562500E-01        1.13619592769           0.232970824164E-10       0.392663432159E-01       0.470760165335E-09        300.002800699      
       0.135742187500E-01        1.13618018793           0.278420938648E-10       0.392662696163E-01       0.313522082438E-09        300.003804289      
       0.136132812500E-01        1.13616197301           0.316341772656E-10       0.392661793685E-01       0.268531649920E-09        300.005148342      
       0.136523437500E-01        1.13614078389           0.409509571977E-10       0.392660681370E-01       0.445783789351E-09        300.006943733      
       0.136914062500E-01        1.13611587760           0.539460769892E-10       0.392659295049E-01       0.101627434697E-08        300.009348806      
       0.137304687500E-01        1.13608626000           0.737667950270E-10       0.392657547243E-01       0.170771943056E-08        300.012586250      
       0.137695312500E-01        1.13605060444           0.107339634360E-09       0.392655319955E-01       0.234230265878E-08        300.016955571      
       0.138085937500E-01        1.13600736824           0.161012667500E-09       0.392652474561E-01       0.272172707074E-08        300.022838170      
       0.138476562500E-01        1.13595425246           0.252414644199E-09       0.392648804305E-01       0.277636726876E-08        300.030781872      
       0.138867187500E-01        1.13588808894           0.416626421947E-09       0.392644024139E-01       0.287424308799E-08        300.041561097      
       0.139257812500E-01        1.13580455250           0.709138727774E-09       0.392637745898E-01       0.314736210466E-08        300.056223466      
       0.139648437500E-01        1.13569853095           0.123620117203E-08       0.392629510861E-01       0.383996866037E-08        300.076112645      
       0.140039062500E-01        1.13556229007           0.219129914865E-08       0.392618629291E-01       0.513819998650E-08        300.103164781      
       0.140429687500E-01        1.13538504547           0.394382932171E-08       0.392604144382E-01       0.687892521039E-08        300.140125813      
       0.140820312500E-01        1.13515193861           0.715882704375E-08       0.392584747108E-01       0.897051058325E-08        300.190723975      
       0.141210937500E-01        1.13484517772           0.130611379975E-07       0.392558874701E-01       0.110297605695E-07        300.259758604      
       0.141601562500E-01        1.13443780069           0.239244387296E-07       0.392524179655E-01       0.130435785530E-07        300.354158126      
       0.141992187500E-01        1.13389202734           0.439607578898E-07       0.392477396473E-01       0.153481599097E-07        300.483760841      
       0.142382812500E-01        1.13315571333           0.807795544674E-07       0.392414049951E-01       0.182073793893E-07        300.661938528      
       0.142773437500E-01        1.13216631427           0.147991166420E-06       0.392328784797E-01       0.220946087359E-07        300.905931649      
       0.143164062500E-01        1.13082950189           0.270291568133E-06       0.392213570423E-01       0.272309957873E-07        301.240573202      
       0.143554687500E-01        1.12901395314           0.491887069709E-06       0.392057258921E-01       0.336616472977E-07        301.701018288      
       0.143945312500E-01        1.12654044527           0.889734387180E-06       0.391844628608E-01       0.415708540874E-07        302.334836279      
       0.144335937500E-01        1.12319816894           0.159542341413E-05       0.391557586312E-01       0.511827126577E-07        303.202955844      
       0.144726562500E-01        1.11867596819           0.283867403615E-05       0.391169243265E-01       0.630016335200E-07        304.392244288      
       0.145117187500E-01        1.11255514790           0.500142056365E-05       0.390642793884E-01       0.777200190505E-07        306.023926683      
       0.145507812500E-01        1.10429162096           0.874346568257E-05       0.389928958099E-01       0.962099182003E-07        308.258842931      
